---,Analog In. | Ch.1,Analog In. | Ch.1,Analog In. | Ch.1,Analog In. | Ch.2,Analog In. | Ch.2,Analog In. | Ch.2,Analog Out. | Ch.1,Analog Out. | Ch.2,
Time(s),AIn-1 - Dem (AOut-1),AIn-1 - Dem (AOut-2),AIn-1 - Raw,AIn-2 - Dem (AOut-1),AIn-2 - Dem (AOut-2),AIn-2 - Raw,AOut-1,AOut-2,
0.086092,2.11102,1.95367113,0.171437727,0.0168321779,0.0254939893,0.02006592,1,1,
0.094295,2.10991369,1.95381844,-0.0149540696,0.0170314751,0.0257509024,0.0131992553,1,1,
0.102499,2.10920265,1.9539002,-0.499053926,0.0172728163,0.0258004687,0.00854518265,1,1,
0.110702,2.10816675,1.95344562,0.0907925657,0.0174683039,0.0254919153,-0.00358592486,1,1,
0.118905,2.10621358,1.95223834,0.8886227,0.0175351736,0.0249398165,0.0297555467,1,1,
0.127108,2.10367182,1.95052706,-0.812936796,0.017521842,0.0244785813,0.0198370312,1,1,
0.135311,2.10108352,1.94885712,-0.785241249,0.0175681098,0.0243469222,0.0148777734,1,1,
0.143514,2.09923486,1.94781784,1.51745659,0.0177319141,0.0244909085,0.0336466567,1,1,
0.151718,2.09824786,1.94743784,0.00335703604,0.0178934308,0.02461276,0.0279244362,1,1,
0.159921,2.09803147,1.9474316,-1.87383648,0.0178762552,0.0244716593,0.00450148015,1,1,
0.168124,2.09840471,1.94722809,1.07982116,0.0176122785,0.024140837,0.0197607349,1,1,
0.176327,2.09916502,1.94672305,1.60840175,0.0172349941,0.0238426087,0.0317392499,1,1,
0.18453,2.10009074,1.94623899,-2.29598376,0.0169823082,0.0236579959,0.00442518387,1,1,
0.192733,2.10064198,1.94617655,-0.41604358,0.0169967147,0.0235527325,0.0123599963,1,1,
0.200936,2.10083375,1.94693102,2.84821619,0.0172324944,0.0235086098,0.0479903562,1,1,
0.20914,2.10087754,1.94821796,-1.3287759,0.0175452536,0.0235035153,-0.00106814783,1,1,
0.217343,2.10115335,1.94931023,-2.33581042,0.0178387088,0.0235674559,-0.00251777703,1,1,
0.225546,2.10142417,1.94916011,2.80205695,0.0181287391,0.0237891092,0.0388348033,1,1,
0.233749,2.10087713,1.94729666,0.870006409,0.0184189293,0.0242149126,0.0314340648,1,1,
0.241952,2.09895369,1.94411114,-3.48735008,0.0186312452,0.0247773465,-0.0209814753,1,1,
0.250155,2.09579595,1.94043052,1.1874752,0.0186879571,0.0251899175,0.0458540605,1,1,
0.258359,2.09248904,1.93704967,2.98379467,0.0186080093,0.0250294358,0.0502029481,1,1,
0.266562,2.09003755,1.93440787,-3.11037019,0.0184564636,0.0241311573,0.00686666463,1,1,
0.274765,2.08892359,1.93274729,-1.27697073,0.0182905574,0.0228196003,0.0238807337,1,1,
0.282968,2.08878384,1.93203894,3.8718833,0.0181318102,0.0217370514,0.0659962767,1,1,
0.291171,2.089034,1.93224141,-0.955229347,0.017976084,0.0214391682,0.0148014771,1,1,
0.299374,2.08952952,1.93319356,-3.39144566,0.017830127,0.0220466501,-0.0125888852,1,1,
0.307577,2.09046019,1.93469861,2.97990356,0.017724644,0.0232182407,0.0558488723,1,1,
0.31578,2.09206968,1.9362232,1.75008393,0.0177048557,0.0244094854,0.0460829493,1,1,
0.323984,2.09423417,1.93733276,-3.56540117,0.0178424999,0.0251812517,-0.0316629536,1,1,
0.332187,2.09635828,1.93799975,0.624790185,0.0181660938,0.0253472217,0.0411236915,1,1,
0.34039,2.09753376,1.93822777,3.62186041,0.0185517879,0.0250225693,0.0591296121,1,1,
0.348593,2.09701386,1.93793821,-2.71271401,0.0187885352,0.024511024,-0.00404370251,1,1,
0.356796,2.0945796,1.93658315,-1.98538163,0.0187975868,0.0241040076,0.00328073977,1,1,
0.364999,2.09064484,1.93399988,3.67625965,0.0186678037,0.0239577313,0.0703451643,1,1,
0.373203,2.0860672,1.93070491,-0.196691794,0.0184885204,0.0240965286,0.0186162908,1,1,
0.381406,2.08184599,1.92765317,-3.43546861,0.0182657838,0.0244840323,-0.0169377728,1,1,
0.389609,2.07848439,1.92553331,2.20549638,0.0179631741,0.0250096026,0.0620288705,1,1,
0.397812,2.07606202,1.92416675,2.02345347,0.0175362428,0.0254832497,0.038758507,1,1,
0.406015,2.07459331,1.92305517,-3.20619831,0.0170355487,0.0257663107,-0.0181585131,1,1,
0.414218,2.07418061,1.92193009,-0.110324412,0.0167023142,0.02586898,0.014496292,1,1,
0.422421,2.07486117,1.9211251,2.95884579,0.0167143365,0.0258399345,0.0444807276,1,1,
0.430624,2.07613361,1.92108997,-1.53324992,0.0169625901,0.0255924068,-0.0159459212,1,1,
0.438828,2.07746437,1.92194545,-1.90717795,0.0172597701,0.0249400886,-0.00503555406,1,1,
0.447031,2.07847463,1.92311106,2.41248817,0.0175336169,0.0238548981,0.0350199896,1,1,
0.455234,2.07914443,1.92362272,0.338908048,0.0177564732,0.0226988058,0.0141148106,1,1,
0.463437,2.07928893,1.92265962,-2.32955412,0.0178773166,0.0219910727,-0.00732444227,1,1,
0.47164,2.07843715,1.92007781,0.941343425,0.0178566784,0.0219953454,0.0090029603,1,1,
0.479843,2.07637331,1.91659405,1.37539293,0.0177510046,0.0225286597,0.0246436964,1,1,
0.488047,2.07329354,1.9131023,-1.44810327,0.017719275,0.0231379189,-0.00389110996,1,1,
0.49625,2.07029988,1.91043884,-0.489898373,0.0178667328,0.0235009601,0.00793481246,1,1,
0.504453,2.06843085,1.90879011,1.32183294,0.0181315226,0.0236397386,0.0240333262,1,1,
0.512656,2.06818988,1.90794536,-0.325708792,0.0183221927,0.0236863434,0.00801110874,1,1,
0.520859,2.06891365,1.90747292,-0.833307901,0.0182866077,0.0236136432,0.0185399945,1,1,
0.529062,2.06951887,1.9069096,0.503021332,0.0179868267,0.023396813,0.0231177709,1,1,
0.537265,2.06962453,1.90620671,0.264061403,0.0175032477,0.023206779,0.0160222175,1,1,
0.545469,2.06952421,1.90566187,-0.256584368,0.0170305431,0.0232720073,0.0156407361,1,1,
0.553672,2.07001786,1.90604096,-0.162511063,0.0167742478,0.0236286356,0.0249488815,1,1,
0.561875,2.07112962,1.90772253,-0.0488296152,0.0168160043,0.024095364,0.0090029603,1,1,
0.570078,2.0724439,1.91011514,0.462508011,0.0170731762,0.0244428729,0.0266273995,1,1,
0.578281,2.07309491,1.91179735,-0.033722953,0.017376316,0.0245744446,0.0167088839,1,1,
0.586484,2.07244486,1.91155205,-0.773110141,0.0175376565,0.0245571089,0.0204474013,1,1,
0.594687,2.07063603,1.90910129,0.379650258,0.0174740618,0.0244847372,0.0135044404,1,1,
0.602891,2.06817415,1.90529959,1.0011597,0.0172845802,0.0243249757,0.0350199896,1,1,
0.611094,2.0658935,1.90159927,-1.25400555,0.0171555726,0.0239127543,0.0104525895,1,1,
0.619297,2.06420052,1.89911865,-0.530793176,0.017181366,0.0231887371,0.00953703421,1,1,
0.6275,2.06351333,1.89822731,1.86613056,0.0173111501,0.0223977864,0.035401471,1,1,
0.635703,2.06370279,1.89829752,-0.555818354,0.017412309,0.0219718894,0.0128940703,1,1,
0.643906,2.06419554,1.89855302,-1.88970611,0.0173451958,0.0221349195,0.000381481368,1,1,
0.652109,2.0642772,1.89843265,1.79517502,0.0170328454,0.0226752938,0.0373088778,1,1,
0.660313,2.06339752,1.89795792,1.07943968,0.0165557315,0.0232501976,0.0270851772,1,1,
0.668516,2.0620108,1.89748756,-2.68555254,0.0161607716,0.0237306966,0.000686666463,1,1,
0.676719,2.06096637,1.89709532,0.351268044,0.0160519285,0.0241722888,0.00915555284,1,1,
0.684922,2.06099026,1.89673924,2.78931547,0.0162332632,0.0245510916,0.0488296152,1,1,
0.693125,2.06173578,1.89611874,-2.18176824,0.0166131739,0.0246829175,-0.00778221992,1,1,
0.701328,2.06219246,1.894965,-1.65906247,0.0171341458,0.0244482646,0.0179296243,1,1,
0.709531,2.06140839,1.89300034,3.25487533,0.017732109,0.0239954202,0.0561540574,1,1,
0.717735,2.05909098,1.89034027,-0.152363659,0.0182420408,0.0236262324,0.0277718436,1,1,
0.725938,2.05602985,1.88760252,-3.41273232,0.0184814367,0.0235187927,-0.015335551,1,1,
0.734141,2.0532252,1.88545036,2.11416974,0.0184418367,0.0236237305,0.0392162847,1,1,
0.742344,2.05131281,1.88423021,2.256386,0.0182944368,0.0237418946,0.0376140629,1,1,
0.750547,2.05013681,1.88389518,-3.49398785,0.0181090062,0.0236213209,-0.0205236976,1,1,
0.75875,2.04929242,1.88415047,-0.187841426,0.0178184077,0.0231464331,0.0138096255,1,1,
0.766953,2.0485712,1.88459173,3.77460555,0.0174706269,0.0224697259,0.0460829493,1,1,
0.775157,2.04790496,1.88506164,-2.02414014,0.017231478,0.0219654968,0.00488296152,1,1,
0.78336,2.04730827,1.8853811,-2.59521775,0.0171305426,0.0219687684,0.0180059206,1,1,
0.791563,2.04675988,1.88548911,3.53183081,0.0170675315,0.0224827349,0.0595873898,1,1,
0.799766,2.04648623,1.88541794,0.620746483,0.0169566234,0.0232375717,0.0319681387,1,1,
0.807969,2.0467753,1.88523124,-3.55670339,0.0168141087,0.0239559265,-0.0120548112,1,1,
0.816172,2.04725189,1.88492178,1.70110172,0.0167382613,0.0244477759,0.0518051698,1,1,
0.824375,2.04678125,1.88401445,2.83158361,0.016799332,0.0245517928,0.0543992431,1,1,
0.832579,2.04438091,1.88194515,-3.29004791,0.0169696875,0.0241960227,-0.0143436995,1,1,
0.840782,2.04034668,1.87847211,-0.868633076,0.0171185145,0.0235632325,0.0101474044,1,1,
0.848985,2.03607381,1.87436454,3.55151524,0.017073854,0.0230280469,0.0712607196,1,1,
0.857188,2.03298477,1.87094047,-1.15504929,0.0168058925,0.0228343088,0.00473036897,1,1,
0.865391,2.03163433,1.86894557,-2.79732658,0.0165698984,0.0228867077,0.00541703543,1,1,
0.873594,2.03134967,1.86812562,2.67441328,0.0166960366,0.0228920541,0.050737022,1,1,
0.881797,2.03109579,1.8675585,1.08050783,0.0172020025,0.0227731169,0.0309762871,1,1,
0.890001,2.03028439,1.86653139,-3.13013092,0.0177871398,0.0227724035,-0.0211340678,1,1,
0.898204,2.02898835,1.86506438,0.731223487,0.0181820545,0.0230693321,0.0268562883,1,1,
0.906407,2.02779251,1.8638642,2.32337413,0.0183601438,0.0235471922,0.037919248,1,1,
0.91461,2.02719039,1.86367598,-1.9348735,0.0183849824,0.0239161434,0.00701925718,1,1,
0.922813,2.02736186,1.86468876,-1.07837153,0.0182483053,0.0239450865,0.0148777734,1,1,
0.931016,2.0276626,1.86615063,2.26699118,0.017926675,0.0235944079,0.0428022095,1,1,
0.939219,2.02716744,1.86691994,-0.271767327,0.0174850699,0.0229822863,0.0125888852,1,1,
0.947423,2.02529108,1.86630522,-1.84514908,0.0170873441,0.0223195961,0.00732444227,1,1,
0.955626,2.02226015,1.86442535,1.17015595,0.0169249,0.0218757056,0.0389873959,1,1,
0.963829,2.01914492,1.86203731,0.768074587,0.0170399261,0.0218731933,0.0203711051,1,1,
0.972032,2.01683784,1.85971766,-1.28513443,0.0172702786,0.0223355938,0.014496292,1,1,
0.980235,2.0157668,1.85780707,-0.0664540544,0.0173582764,0.0230505916,0.0330362865,1,1,
0.988438,2.01542968,1.85639569,0.908993805,0.0171939292,0.0237103778,0.0139622181,1,1,
0.996641,2.01528718,1.85553402,-0.366832484,0.0169012954,0.024078637,0.00488296152,1,1,
1.004845,2.01501707,1.85517631,-0.475554674,0.0166162668,0.0240548823,0.0197607349,1,1,
1.013048,2.01447483,1.85491561,0.274285104,0.0164034608,0.0237175969,0.0133518479,1,1,
1.021251,2.01378963,1.85447227,0.125431074,0.0163142645,0.0232788767,0.000534073916,1,1,
1.029454,2.01297435,1.85394952,0.0271614734,0.0163599413,0.0229612908,0.0106814783,1,1,
1.037657,2.01240277,1.85383145,-0.317850276,0.0165391989,0.0228904167,0.0307473983,1,1,
1.04586,2.01218151,1.85437694,-0.191732536,0.0168641519,0.0230188916,0.00694296091,1,1,
1.054063,2.01209277,1.85522982,0.782113102,0.0173071045,0.0231710848,0.0237281411,1,1,
1.062267,2.01129073,1.85552028,-0.197225867,0.0177072069,0.023204444,0.0115970336,1,1,
1.07047,2.00902189,1.85452951,-1.03930784,0.0178561064,0.0231817289,0.0115207373,1,1,
1.078673,2.00569156,1.85221604,0.792489395,0.0176821857,0.0232559694,0.0190740684,1,1,
1.086876,2.00246543,1.8494058,0.897244179,0.0173443058,0.0234472622,0.0347911008,1,1,
1.095079,2.00075979,1.84729247,-1.63090915,0.0171209027,0.0236290419,0.00373851741,1,1,
1.103282,2.00090124,1.84655253,-0.0968962676,0.0171312471,0.0236742161,0.000915555284,1,1,
1.111485,2.00231914,1.84711814,2.05191198,0.0172775788,0.0236158627,0.039292581,1,1,
1.119689,2.00397908,1.84810535,-1.21074557,0.017440025,0.0236170474,0.0114444411,1,1,
1.127892,2.005068,1.84867591,-1.63876766,0.0176319542,0.0238456336,-0.00785851619,1,1,
1.136095,2.00556675,1.84857926,2.33748894,0.0178875682,0.0243505658,0.0399792474,1,1,
1.144298,2.00577795,1.84810833,0.377742851,0.0181786741,0.0249126281,0.0254829554,1,1,
1.152501,2.00617498,1.84792749,-2.82639546,0.0184895408,0.0251518274,-0.0157170324,1,1,
1.160704,2.00667735,1.84849884,1.21074557,0.0187827388,0.0248545215,0.0122837001,1,1,
1.168907,2.00682334,1.84962567,2.40028077,0.01891974,0.0242221001,0.0485244301,1,1,
1.177111,2.00586179,1.8502641,-2.84073916,0.0187405936,0.0237580895,-0.0212866604,1,1,
1.185314,2.00325492,1.84944805,-0.835367901,0.0182025188,0.0238233679,0.0176244392,1,1,
1.193517,1.99932872,1.84706455,3.41692862,0.0174901005,0.0242342426,0.0535599841,1,1,
1.20172,1.99509098,1.84390141,-1.18480483,0.0169350373,0.024407174,0.00907925657,1,1,
1.209923,1.99189564,1.84119515,-2.94251839,0.0168008801,0.0240390013,-0.0272377697,1,1,
1.218126,1.99045156,1.83978988,2.88972137,0.0171142217,0.0234066084,0.0459303568,1,1,
1.22633,1.99052312,1.83965561,1.30565813,0.0176058668,0.0229776938,0.0284585101,1,1,
1.234533,1.99130539,1.84027255,-3.54777673,0.0178671226,0.0229748107,-0.00823999756,1,1,
1.242736,1.99222433,1.84101533,0.877788629,0.0177016231,0.023248317,0.0238807337,1,1,
1.250939,1.99332005,1.84120485,3.32949309,0.0173100357,0.0234274119,0.0553910947,1,1,
1.259142,1.99453547,1.84065768,-2.88232063,0.0171052095,0.0233216642,-0.0100711081,1,1,
1.267345,1.99548172,1.83980835,-1.60534989,0.0172739335,0.0229969523,0.0115207373,1,1,
1.275548,1.99560869,1.83945233,3.70937223,0.0175819433,0.0225459972,0.05241554,1,1,
1.283752,1.99486517,1.83997454,-0.518356883,0.017616685,0.0220159708,0.0241859188,1,1,
1.291955,1.99373086,1.84064106,-3.38900418,0.017179477,0.0214934345,-0.00999481185,1,1,
1.300158,1.99251832,1.84013226,2.50663778,0.0164756084,0.0211630796,0.0519577624,1,1,
1.308361,1.99110055,1.83758311,1.85064241,0.0159328405,0.0212989833,0.0370036927,1,1,
1.316564,1.98921533,1.83351534,-3.47323527,0.0158444626,0.0221106163,0.00633259072,1,1,
1.324767,1.98715096,1.82929963,0.181127354,0.0161061482,0.0234723426,0.0321970275,1,1,
1.332971,1.98571728,1.82611457,3.13486129,0.0163613478,0.0248802986,0.0631733146,1,1,
1.341174,1.98533425,1.82437424,-1.96501053,0.0163897982,0.0257432797,-0.00785851619,1,1,
1.349377,1.98563787,1.82383969,-1.90443129,0.0162313758,0.0257519408,0.0131229591,1,1,
1.35758,1.98581043,1.82420712,2.82593768,0.0160451467,0.0250595602,0.0564592425,1,1,
1.365783,1.98555971,1.82524541,0.164571062,0.0159993674,0.0240687252,0.0307473983,1,1,
1.373986,1.985099,1.82654413,-2.75467696,0.0161606032,0.023136224,-0.00106814783,1,1,
1.382189,1.98467898,1.82756076,1.37859737,0.0164070167,0.022474095,0.0560777612,1,1,
1.390392,1.98442603,1.82797934,1.62114322,0.0165559003,0.0221878759,0.0335703604,1,1,
1.398596,1.9840261,1.82770763,-2.04763939,0.0165687986,0.0223182033,0.000915555284,1,1,
1.406799,1.98317278,1.8268872,-0.369960631,0.0166043769,0.0228288569,0.031510361,1,1,
1.415002,1.98161187,1.82557727,1.92503128,0.0168318751,0.0235156736,0.0343333232,1,1,
1.423205,1.97947518,1.82376754,-0.714896084,0.0172623893,0.0240700824,-0.00213629566,1,1,
1.431408,1.97724596,1.82160643,-1.28566851,0.0177562221,0.0242680284,0.0112155522,1,1,
1.439611,1.97561229,1.81947322,1.17549669,0.0181270662,0.0240780717,0.0289162877,1,1,
1.447815,1.97531981,1.81804965,0.334406568,0.0182161821,0.02368181,0.0241096225,1,1,
1.456018,1.97633788,1.81773351,-1.00726341,0.0179379762,0.0234367196,-0.00823999756,1,1,
1.464221,1.97822131,1.81847061,0.179830317,0.0174189179,0.0236686217,0.0270088809,1,1,
1.472424,1.98019954,1.81987875,0.527207251,0.0169714054,0.0243076372,0.0150303659,1,1,
1.480627,1.98183206,1.82148735,-0.2108829,0.0168653778,0.0248979292,0.0139622181,1,1,
1.48883,1.98327911,1.82290613,-0.274895474,0.0171164376,0.0250615166,0.0292977691,1,1,
1.497033,1.98500526,1.82369034,-0.007248146,0.0174881762,0.0248134733,0.00495925779,1,1,
1.505237,1.98743762,1.8236184,0.18509476,0.0177684796,0.0243929342,0.00854518265,1,1,
1.51344,1.99011079,1.82291264,0.239799188,0.0178610711,0.0239931479,0.0155644398,1,1,
1.521643,1.99216104,1.82196823,-0.624561296,0.0176876007,0.0236093112,0.00221259194,1,1,
1.529846,1.99262569,1.82085752,-0.158772546,0.0171929358,0.023171637,0.00709555345,1,1,
1.538049,1.99130436,1.81927364,1.08676412,0.0164838445,0.022788553,0.0336466567,1,1,
1.546252,1.98880707,1.81684299,-0.566194647,0.015859135,0.0226322884,0.0126651814,1,1,
1.554455,1.98590075,1.81375831,-1.13147374,0.0156606848,0.0226796905,0.011978515,1,1,
1.562659,1.98337362,1.8107232,1.31321146,0.0160635865,0.0228301229,0.0222785119,1,1,
1.570862,1.98146615,1.80846109,0.581987976,0.0169443978,0.0230290577,0.0258644368,1,1,
1.579065,1.98021014,1.80726941,-1.97889645,0.01790335,0.0232171563,-0.007248146,1,1,
1.587268,1.97933484,1.80672877,0.487075411,0.0185194945,0.0233424197,0.0228125858,1,1,
1.595471,1.9787434,1.80635726,2.02948088,0.0186456694,0.0233954706,0.0392162847,1,1,
1.603674,1.97858671,1.80608142,-1.88268685,0.0184046175,0.0233542715,0.00442518387,1,1,
1.611877,1.97899009,1.80642237,-1.16016114,0.0179735614,0.0231742637,0.00595110935,1,1,
1.620081,1.9800747,1.80787607,2.75215918,0.0175232582,0.0229223243,0.048219245,1,1,
1.628284,1.98143911,1.81009206,-0.440229499,0.0171986309,0.0228126683,0.0174718467,1,1,
1.636487,1.98248002,1.81196103,-2.74590289,0.0171010604,0.0230622664,-0.0125125889,1,1,
1.64469,1.98250425,1.81221494,2.04451125,0.0171804602,0.0236732954,0.0337992492,1,1,
1.652893,1.98125915,1.81044622,1.7751091,0.0172758936,0.0243270192,0.0411236915,1,1,
1.661096,1.9790712,1.80742406,-3.31423383,0.0173210016,0.0246126639,-0.0173192541,1,1,
1.669299,1.97662124,1.80438191,0.122074038,0.0173481526,0.0243997339,0.0156407361,1,1,
1.677503,1.97486372,1.80217247,3.31881161,0.0173521741,0.0239021025,0.044328135,1,1,
1.685706,1.97438389,1.80106285,-2.12134159,0.0173228957,0.0233453792,-0.00312814722,1,1,
1.693909,1.9752704,1.80084168,-2.20358898,0.0173370343,0.0228093507,-0.0157933287,1,1,
1.702112,1.97708892,1.80118827,3.42089602,0.0174416913,0.0223763173,0.0645466475,1,1,
1.710315,1.97934699,1.80183641,0.261162145,0.0175886612,0.0222046491,0.0103762932,1,1,
1.718518,1.98181984,1.8026509,-3.53244118,0.017730366,0.0224219772,-0.0164799951,1,1,
1.726722,1.98439691,1.80365106,1.8960387,0.0178902459,0.022943484,0.0422681356,1,1,
1.734925,1.98701996,1.80474793,2.58995331,0.0181005085,0.0234666834,0.0608081301,1,1,
1.743128,1.98936911,1.80582087,-3.41578417,0.0183111423,0.0237358203,-0.025635548,1,1,
1.751331,1.99094466,1.80654458,-0.55017243,0.0183824213,0.0238675539,0.0211340678,1,1,
1.759534,1.99119204,1.80650652,3.65253151,0.0181913223,0.0241027983,0.0528733177,1,1,
1.767737,1.98968522,1.80553407,-1.51081881,0.0177589129,0.0244050229,0.00328073977,1,1,
1.77594,1.98652747,1.80372163,-2.72652364,0.0172394505,0.0245227346,-0.0267799921,1,1,
1.784143,1.98239947,1.80155961,2.99462874,0.0168352067,0.0243290324,0.0701925718,1,1,
1.792347,1.97846818,1.79961598,0.87305826,0.0166744988,0.0239786418,0.0273903623,1,1,
1.80055,1.97570498,1.79821745,-3.41357158,0.0167459358,0.0237460824,-0.02006592,1,1,
1.808753,1.97425874,1.79725465,1.08226264,0.0169686254,0.0237862566,0.0398266549,1,1,
1.816956,1.9735516,1.79643483,2.53387555,0.0173064768,0.0240302139,0.0399029511,1,1,
1.825159,1.97286695,1.79576471,-2.43881039,0.0177381078,0.0242862741,-0.00617999817,1,1,
1.833362,1.97234343,1.79549563,-1.01695303,0.0181435589,0.0243177433,0.0334940641,1,1,
1.841566,1.97256757,1.79577528,2.73384808,0.0182987298,0.0239416502,0.0518814661,1,1,
1.849769,1.97368595,1.79665568,-0.56695761,0.0181161601,0.0232995435,0.0145725883,1,1,
1.857972,1.97513923,1.79808578,-2.24372082,0.0177924005,0.0228866932,-0.00556962798,1,1,
1.866175,1.97603786,1.79966407,1.75305948,0.0175744019,0.0231429094,0.0431836909,1,1,
1.874378,1.97590283,1.80059397,0.936994537,0.017503253,0.0240365616,0.0260933256,1,1,
1.882581,1.97452953,1.79988944,-1.95654164,0.0174719876,0.0250514673,-0.00160222175,1,1,
1.890784,1.97210745,1.7973355,0.190588092,0.017431539,0.0255922572,0.0430310984,1,1,
1.898987,1.96906907,1.79376562,1.46916105,0.0173669328,0.0254365869,0.0301370281,1,1,
1.907191,1.96633686,1.79040889,-0.909985656,0.0172164772,0.0248100437,0.00534073916,1,1,
1.915394,1.96499149,1.78799742,-0.782418287,0.0169396025,0.0241123686,0.0186162908,1,1,
1.923597,1.96515492,1.78629627,0.9889523,0.0166233863,0.0237142582,0.0283059175,1,1,
1.9318,1.96607868,1.78498015,0.0678273873,0.0165018326,0.0237929743,0.0106814783,1,1,
1.940003,1.96654907,1.78416449,-0.708334605,0.0168043891,0.0241617443,0.0105288858,1,1,
